Time,Angle,Error,Deriv,Sum,Cmd,Headroom,DesiredAng,Kp,Kd,Ki
0.2092418670654297,17.551807403564453,2.448192596435547,0.025272369384765625,0.0,-0.0,34894.0,0,0,0,0
0.4190702438354492,17.514408111572266,2.4855918884277344,-0.020740509033203125,0.0,-0.0,34893.0,0,0,0,0
0.6295228004455566,17.540132522583008,2.459867477416992,-0.0098114013671875,0.0,-0.0,34894.0,0,0,0,0
0.8394651412963867,17.507080078125,2.492919921875,-0.029224395751953125,0.0,-0.0,34893.0,0,0,0,0
1.0493717193603516,17.49915313720703,2.5008468627929688,-0.02190399169921875,0.0,-0.0,34894.0,0,0,0,0
1.2592203617095947,17.439722061157227,2.5602779388427734,0.006641387939453125,0.0,-0.0,34893.0,0,0,0,0
1.4694254398345947,17.493667602539062,2.5063323974609375,-0.04065704345703125,0.0,-0.0,34893.0,0,0,0,0
1.6792991161346436,17.52419662475586,2.4758033752441406,0.2277984619140625,0.0,-0.0,34894.0,0,0,0,0
1.8897628784179688,17.422252655029297,2.577747344970703,0.279052734375,0.0,-0.0,34893.0,0,0,0,0
2.0992937088012695,17.483932495117188,2.5160675048828125,0.018877029418945312,0.0,-0.0,34892.0,0,0,0,0
2.308976411819458,17.43128204345703,2.5687179565429688,0.00662994384765625,0.0,-0.0,34894.0,0,0,0,0
2.5186562538146973,17.510133743286133,2.489866256713867,0.012226104736328125,0.0,-0.0,34893.0,0,0,0,0
2.7293541431427,17.497934341430664,2.502065658569336,0.026262283325195312,0.0,-0.0,34893.0,0,0,0,0
2.939302444458008,17.556114196777344,2.4438858032226562,-0.018434524536132812,0.0,3.25,34893.0,0,0,0,0
3.1495537757873535,17.74817657470703,2.2518234252929688,-0.05065345764160156,0.0,3.25,34890.0,0,0,0,0
3.359776496887207,18.053489685058594,1.9465103149414062,-0.059276580810546875,0.0,3.25,34891.0,0,0,0,0
3.569512367248535,18.38854217529297,1.6114578247070312,-0.08010292053222656,0.0,3.25,34890.0,0,0,0,0
3.779130697250366,18.84566307067871,1.154336929321289,0.1261138916015625,0.0,3.25,34890.0,0,0,0,0
3.989408493041992,19.38490104675293,0.6150989532470703,0.3778209686279297,0.0,3.25,34890.0,0,0,0,0
4.200210094451904,20.4027099609375,-0.4027099609375,-0.3757801055908203,0.0,3.25,34891.0,0,0,0,0
4.410336256027222,20.585798263549805,-0.5857982635498047,-0.039577484130859375,0.0,3.25,34892.0,0,0,0,0
4.619306802749634,20.974609375,-0.974609375,-0.06269264221191406,0.0,3.25,34891.0,0,0,0,0
4.8291335105896,21.525632858276367,-1.5256328582763672,-0.15598678588867188,0.0,3.25,34889.0,0,0,0,0
5.0391387939453125,22.09790802001953,-2.0979080200195312,-0.09391212463378906,0.0,3.25,34890.0,0,0,0,0
5.249309301376343,22.770587921142578,-2.770587921142578,-0.13311767578125,0.0,3.25,34890.0,0,0,0,0
5.459291458129883,23.290109634399414,-3.290109634399414,-0.07863426208496094,0.0,3.25,34891.0,0,0,0,0
5.669919013977051,23.86542510986328,-3.8654251098632812,-0.026241302490234375,0.0,3.25,34891.0,0,0,0,0
5.880153179168701,24.68333625793457,-4.68333625793457,-0.06814384460449219,0.0,3.25,34890.0,0,0,0,0
6.089191913604736,25.483566284179688,-5.4835662841796875,-0.3032188415527344,0.0,3.25,34891.0,0,0,0,0
6.299304246902466,26.465587615966797,-6.465587615966797,0.6357860565185547,0.0,3.25,34891.0,0,0,0,0
6.509077072143555,27.245155334472656,-7.245155334472656,1.1945075988769531,0.0,3.25,34892.0,0,0,0,0
6.719809293746948,28.31748390197754,-8.317483901977539,-0.19428443908691406,0.0,3.25,34891.0,0,0,0,0
6.9294703006744385,30.651321411132812,-10.651321411132812,-1.4239444732666016,0.0,3.25,34891.0,0,0,0,0
7.13942813873291,30.920135498046875,-10.920135498046875,-0.2753620147705078,0.0,3.25,34890.0,0,0,0,0
7.349979639053345,32.16120910644531,-12.161209106445312,-0.1949748992919922,0.0,3.25,34890.0,0,0,0,0
7.559345960617065,33.113834381103516,-13.113834381103516,-0.07409286499023438,0.0,-0.0,34890.0,0,0,0,0
7.769068479537964,33.33071517944336,-13.33071517944336,-0.033641815185546875,0.0,-0.0,34894.0,0,0,0,0
7.9793541431427,33.40254592895508,-13.402545928955078,-0.008472442626953125,0.0,-0.0,34894.0,0,0,0,0
8.18919038772583,33.42801284790039,-13.42801284790039,0.00424957275390625,0.0,-0.0,34894.0,0,0,0,0
8.398909568786621,33.449275970458984,-13.449275970458984,-0.0170135498046875,0.0,-0.0,34893.0,0,0,0,0
8.609026432037354,33.457794189453125,-13.457794189453125,-0.029781341552734375,0.0,-0.0,34893.0,0,0,0,0
8.818687915802002,33.449275970458984,-13.449275970458984,-0.07213211059570312,0.0,-0.0,34893.0,0,0,0,0
9.029219150543213,33.45353317260742,-13.453533172607422,0.02558135986328125,0.0,-0.0,34893.0,0,0,0,0
9.238429546356201,33.3729133605957,-13.372913360595703,1.8018722534179688,0.0,-0.0,34893.0,0,0,0,0
9.449397087097168,33.138641357421875,-13.138641357421875,2.5315475463867188,0.0,-0.0,34893.0,0,0,0,0
9.658973932266235,33.887699127197266,-13.887699127197266,-0.4299049377441406,0.0,-0.0,34894.0,0,0,0,0
9.868686437606812,33.457794189453125,-13.457794189453125,0.00852203369140625,0.0,-0.0,34893.0,0,0,0,0
10.079919815063477,33.68589401245117,-13.685894012451172,-0.21531295776367188,0.0,-0.0,34893.0,0,0,0,0
10.290000438690186,33.457794189453125,-13.457794189453125,0.021320343017578125,0.0,-0.0,34892.0,0,0,0,0
10.499085187911987,33.46205520629883,-13.462055206298828,0.017059326171875,0.0,-0.0,34893.0,0,0,0,0
10.709893226623535,33.45353317260742,-13.453533172607422,0.04267120361328125,0.0,-0.0,34894.0,0,0,0,0
10.919331312179565,33.440765380859375,-13.440765380859375,0.0042572021484375,0.0,-0.0,34894.0,0,0,0,0
11.128957033157349,33.41951370239258,-13.419513702392578,-0.06350326538085938,0.0,3.25,34893.0,0,0,0,0
11.339307069778442,32.720333099365234,-12.720333099365234,0.3563880920410156,0.0,3.25,34890.0,0,0,0,0
11.548470497131348,30.990991592407227,-10.990991592407227,0.4709758758544922,0.0,3.25,34889.0,0,0,0,0
11.75931453704834,29.3819522857666,-9.381952285766602,0.21291351318359375,0.0,3.25,34890.0,0,0,0,0
11.96927285194397,28.173940658569336,-8.173940658569336,0.3921527862548828,0.0,3.25,34890.0,0,0,0,0
12.17940068244934,27.121774673461914,-7.121774673461914,1.1828041076660156,0.0,3.25,34889.0,0,0,0,0
12.389748811721802,25.819520950317383,-5.819520950317383,1.1805381774902344,0.0,3.25,34890.0,0,0,0,0
12.599471092224121,25.570600509643555,-5.570600509643555,-0.44275474548339844,0.0,3.25,34891.0,0,0,0,0
12.810376644134521,24.873682022094727,-4.873682022094727,-0.6944961547851562,0.0,3.25,34889.0,0,0,0,0
13.019752502441406,23.38698959350586,-3.3869895935058594,0.10841751098632812,0.0,3.25,34890.0,0,0,0,0
13.229827642440796,22.743778228759766,-2.7437782287597656,0.15137863159179688,0.0,3.25,34890.0,0,0,0,0
13.439042091369629,22.08074188232422,-2.0807418823242188,0.18349838256835938,0.0,3.25,34890.0,0,0,0,0
13.648969411849976,21.40191078186035,-1.4019107818603516,0.12712669372558594,0.0,3.25,34890.0,0,0,0,0
13.859114408493042,20.93170928955078,-0.9317092895507812,0.05971336364746094,0.0,3.25,34890.0,0,0,0,0
14.069483280181885,20.401744842529297,-0.4017448425292969,0.08358001708984375,0.0,3.25,34890.0,0,0,0,0
14.279877662658691,19.823583602905273,0.17641639709472656,0.08202743530273438,0.0,3.25,34889.0,0,0,0,0
14.48921275138855,19.153785705566406,0.8462142944335938,-0.01995086669921875,0.0,3.25,34889.0,0,0,0,0
14.699418544769287,18.55994415283203,1.4400558471679688,0.43128013610839844,0.0,3.25,34890.0,0,0,0,0
14.908565759658813,18.16290283203125,1.83709716796875,0.1707172393798828,0.0,3.25,34889.0,0,0,0,0
15.119593381881714,18.055496215820312,1.9445037841796875,-0.22858047485351562,0.0,-0.0,34889.0,0,0,0,0
15.329299449920654,17.65355110168457,2.3464488983154297,0.011903762817382812,0.0,-0.0,34894.0,0,0,0,0
15.539000988006592,17.622968673706055,2.3770313262939453,-0.00186920166015625,0.0,-0.0,34893.0,0,0,0,0
15.749482154846191,17.60928726196289,2.3907127380371094,-0.0012416839599609375,0.0,-0.0,34894.0,0,0,0,0
15.959034204483032,17.608665466308594,2.3913345336914062,-0.001861572265625,0.0,-0.0,34895.0,0,0,0,0
16.168606758117676,17.603078842163086,2.396921157836914,0.0031032562255859375,0.0,-0.0,34894.0,0,0,0,0
16.37930965423584,17.599979400634766,2.4000205993652344,-0.0018596649169921875,0.0,-0.0,34893.0,0,0,0,0
16.58883023262024,17.603078842163086,2.396921157836914,0.0,0.0,-0.0,34893.0,0,0,0,0
16.79939079284668,17.603078842163086,2.396921157836914,0.18849945068359375,0.0,-0.0,34894.0,0,0,0,0
17.008944511413574,17.514408111572266,2.4855918884277344,0.2957763671875,0.0,-0.0,34893.0,0,0,0,0
17.219278573989868,17.850160598754883,2.149839401245117,-0.24708175659179688,0.0,-0.0,34894.0,0,0,0,0
17.42942500114441,17.675495147705078,2.324504852294922,-0.10890769958496094,0.0,-0.0,34893.0,0,0,0,0
17.639452695846558,17.596878051757812,2.4031219482421875,-0.001239776611328125,0.0,-0.0,34893.0,0,0,0,0
17.849324464797974,17.599979400634766,2.4000205993652344,-0.0018596649169921875,0.0,-0.0,34894.0,0,0,0,0
18.058563709259033,17.5993595123291,2.4006404876708984,-0.0006198883056640625,0.0,-0.0,34893.0,0,0,0,0
18.26963782310486,17.598739624023438,2.4012603759765625,0.00247955322265625,0.0,-0.0,34894.0,0,0,0,0
18.479297876358032,17.60059928894043,2.3994007110595703,-0.00743865966796875,0.0,-0.0,34893.0,0,0,0,0
18.689435958862305,17.59625816345215,2.4037418365478516,-0.03213691711425781,0.0,3.25,34894.0,0,0,0,0
18.898780584335327,17.6893310546875,2.3106689453125,-0.017602920532226562,0.0,3.25,34890.0,0,0,0,0
19.109886646270752,18.006155014038086,1.993844985961914,0.2640113830566406,0.0,3.25,34892.0,0,0,0,0
19.31923270225525,18.636777877807617,1.3632221221923828,-0.314361572265625,0.0,3.25,34891.0,0,0,0,0
19.528807878494263,19.043642044067383,0.9563579559326172,-0.3029193878173828,0.0,3.25,34890.0,0,0,0,0
19.739253282546997,19.383243560791016,0.6167564392089844,-0.05690574645996094,0.0,3.25,34891.0,0,0,0,0
19.949169158935547,19.966899871826172,0.033100128173828125,-0.10599517822265625,0.0,3.25,34891.0,0,0,0,0
20.15965223312378,20.469696044921875,-0.469696044921875,-0.11991310119628906,0.0,3.25,34891.0,0,0,0,0
20.369466304779053,20.806615829467773,-0.8066158294677734,-0.10069656372070312,0.0,3.25,34891.0,0,0,0,0
20.579045295715332,21.323179244995117,-1.3231792449951172,-0.06695556640625,0.0,3.25,34892.0,0,0,0,0
20.789340496063232,21.944856643676758,-1.9448566436767578,-0.06939125061035156,0.0,3.25,34891.0,0,0,0,0
20.999309301376343,22.510549545288086,-2.510549545288086,-0.025905609130859375,0.0,3.25,34890.0,0,0,0,0
21.209442138671875,23.18307876586914,-3.1830787658691406,-0.108367919921875,0.0,3.25,34890.0,0,0,0,0
21.419424533843994,23.817638397216797,-3.817638397216797,0.5288829803466797,0.0,3.25,34890.0,0,0,0,0
21.629279851913452,24.40252685546875,-4.40252685546875,0.32712554931640625,0.0,3.25,34891.0,0,0,0,0
21.839325189590454,26.187490463256836,-6.187490463256836,-0.9689216613769531,0.0,3.25,34891.0,0,0,0,0
22.049396991729736,27.112703323364258,-7.112703323364258,-1.0186824798583984,0.0,3.25,34892.0,0,0,0,0
22.25896143913269,27.309797286987305,-7.309797286987305,-0.15619468688964844,0.0,3.25,34891.0,0,0,0,0
22.469722509384155,28.161230087280273,-8.161230087280273,-0.07590293884277344,0.0,3.25,34891.0,0,0,0,0
22.678805589675903,29.272924423217773,-9.272924423217773,-0.014253616333007812,0.0,3.25,34890.0,0,0,0,0
22.888596057891846,30.687414169311523,-10.687414169311523,-0.3298912048339844,0.0,3.25,34890.0,0,0,0,0
23.099498987197876,32.130977630615234,-12.130977630615234,-0.3452644348144531,0.0,3.25,34890.0,0,0,0,0
23.309322118759155,33.29707336425781,-13.297073364257812,-0.4766654968261719,0.0,3.25,34891.0,0,0,0,0
23.519201040267944,34.38999938964844,-14.389999389648438,-0.09674072265625,0.0,-0.0,34891.0,0,0,0,0
23.72915029525757,34.74231719970703,-14.742317199707031,-0.09500885009765625,0.0,-0.0,34894.0,0,0,0,0
23.939040422439575,34.809288024902344,-14.809288024902344,-0.2702827453613281,0.0,-0.0,34894.0,0,0,0,0
24.149191856384277,34.83330154418945,-14.833301544189453,-0.11957168579101562,0.0,-0.0,34894.0,0,0,0,0
24.3598735332489,34.7232551574707,-14.723255157470703,0.1533966064453125,0.0,-0.0,34893.0,0,0,0,0
24.570035696029663,34.85254669189453,-14.852546691894531,1.0049591064453125,0.0,-0.0,34894.0,0,0,0,0
24.779152154922485,37.20407485961914,-17.20407485961914,-2.317768096923828,0.0,-0.0,34893.0,0,0,0,0
24.989275455474854,37.08747482299805,-17.087474822998047,-2.2397422790527344,0.0,-0.0,34894.0,0,0,0,0
25.199289798736572,34.871822357177734,-14.871822357177734,0.033817291259765625,0.0,-0.0,34893.0,0,0,0,0
25.40919327735901,34.876651763916016,-14.876651763916016,0.019317626953125,0.0,-0.0,34893.0,0,0,0,0
25.619308710098267,34.89596939086914,-14.89596939086914,-0.009662628173828125,0.0,-0.0,34894.0,0,0,0,0
25.829309225082397,34.88147735595703,-14.881477355957031,0.02899932861328125,0.0,-0.0,34894.0,0,0,0,0
26.039332628250122,34.90080261230469,-14.900802612304688,-0.00966644287109375,0.0,-0.0,34895.0,0,0,0,0
26.24955916404724,34.871822357177734,-14.871822357177734,-0.009639739990234375,0.0,-0.0,34894.0,0,0,0,0
26.45909333229065,34.891136169433594,-14.891136169433594,-0.0096588134765625,0.0,-0.0,34893.0,0,0,0,0
26.66909146308899,34.88147735595703,-14.881477355957031,0.02899932861328125,0.0,-0.0,34894.0,0,0,0,0
26.87931227684021,34.91531753540039,-14.91531753540039,-0.24433135986328125,0.0,-0.0,34895.0,0,0,0,0
27.089437246322632,34.77096939086914,-14.77096939086914,-0.3206672668457031,0.0,3.25,34893.0,0,0,0,0
27.299442529678345,34.43635940551758,-14.436359405517578,2.1452255249023438,0.0,3.25,34890.0,0,0,0,0
27.510013103485107,33.33492660522461,-13.33492660522461,1.6483726501464844,0.0,3.25,34890.0,0,0,0,0
27.720388174057007,33.539031982421875,-13.539031982421875,-1.6061859130859375,0.0,3.25,34891.0,0,0,0,0
27.929519414901733,31.203062057495117,-11.203062057495117,-0.9751777648925781,0.0,3.25,34890.0,0,0,0,0
28.139283180236816,28.437047958374023,-8.437047958374023,0.1635761260986328,0.0,3.25,34890.0,0,0,0,0
28.34916615486145,27.258968353271484,-7.258968353271484,0.2831268310546875,0.0,3.25,34890.0,0,0,0,0
28.559513568878174,26.255163192749023,-6.255163192749023,0.1746540069580078,0.0,3.25,34890.0,0,0,0,0
28.769822597503662,25.225868225097656,-5.225868225097656,0.17154312133789062,0.0,3.25,34890.0,0,0,0,0
28.979313850402832,24.312124252319336,-4.312124252319336,0.18684005737304688,0.0,3.25,34889.0,0,0,0,0
29.189141035079956,23.573993682861328,-3.573993682861328,0.05082893371582031,0.0,3.25,34889.0,0,0,0,0
29.40028738975525,22.907451629638672,-2.907451629638672,0.06729507446289062,0.0,3.25,34889.0,0,0,0,0
29.609314918518066,22.3095703125,-2.3095703125,0.05196380615234375,0.0,3.25,34891.0,0,0,0,0
29.819329261779785,21.576866149902344,-1.5768661499023438,0.3571815490722656,0.0,3.25,34889.0,0,0,0,0
30.029430866241455,20.929622650146484,-0.9296226501464844,0.6919441223144531,0.0,3.25,34890.0,0,0,0,0
30.240110397338867,20.943191528320312,-0.9431915283203125,-0.21704864501953125,0.0,3.25,34889.0,0,0,0,0
30.449301958084106,20.39402198791504,-0.39402198791503906,-0.2304859161376953,0.0,3.25,34890.0,0,0,0,0
30.659131288528442,19.315671920776367,0.6843280792236328,0.11329078674316406,0.0,3.25,34889.0,0,0,0,0
30.869256496429443,18.753463745117188,1.2465362548828125,0.06106376647949219,0.0,3.25,34890.0,0,0,0,0
31.079692840576172,18.27086067199707,1.7291393280029297,0.04246711730957031,0.0,3.25,34889.0,0,0,0,0
31.289693117141724,17.931583404541016,2.0684165954589844,0.030902862548828125,0.0,-0.0,34890.0,0,0,0,0
31.49910569190979,17.68366813659668,2.3163318634033203,0.020162582397460938,0.0,-0.0,34893.0,0,0,0,0
31.7091326713562,17.625459671020508,2.374540328979492,0.0,0.0,-0.0,34894.0,0,0,0,0
31.91933584213257,17.60804557800293,2.3919544219970703,-0.05316162109375,0.0,-0.0,34895.0,0,0,0,0
32.12939977645874,17.607423782348633,2.392576217651367,0.24467849731445312,0.0,-0.0,34894.0,0,0,0,0
32.3393235206604,17.691850662231445,2.3081493377685547,-0.050800323486328125,0.0,-0.0,34893.0,0,0,0,0
32.54983329772949,17.885848999023438,2.1141510009765625,-0.28462982177734375,0.0,-0.0,34894.0,0,0,0,0
32.75933218002319,17.601219177246094,2.3987808227539062,-0.0006198883056640625,0.0,-0.0,34894.0,0,0,0,0
32.969300508499146,17.603078842163086,2.396921157836914,-0.00247955322265625,0.0,-0.0,34894.0,0,0,0,0
33.17996573448181,17.599979400634766,2.4000205993652344,0.001239776611328125,0.0,-0.0,34893.0,0,0,0,0
33.3897807598114,17.60059928894043,2.3994007110595703,0.0006198883056640625,0.0,-0.0,34893.0,0,0,0,0
33.59984874725342,17.597497940063477,2.4025020599365234,0.0024814605712890625,0.0,-0.0,34894.0,0,0,0,0
33.80930423736572,17.60059928894043,2.3994007110595703,-0.010534286499023438,0.0,-0.0,34892.0,0,0,0,0
34.01933479309082,17.597497940063477,2.4025020599365234,-0.06288719177246094,0.0,-0.0,34894.0,0,0,0,0
34.22942113876343,17.57954978942871,2.420450210571289,0.224212646484375,0.0,-0.0,34892.0,0,0,0,0
34.439395904541016,17.60059928894043,2.3994007110595703,0.052951812744140625,0.0,-0.0,34893.0,0,0,0,0
34.6497220993042,17.880645751953125,2.119354248046875,-0.2788066864013672,0.0,-0.0,34894.0,0,0,0,0
34.85921669006348,17.603700637817383,2.396299362182617,0.00372314453125,0.0,3.25,34894.0,0,0,0,0
35.06960678100586,17.793500900268555,2.2064990997314453,-0.07386970520019531,0.0,3.25,34891.0,0,0,0,0
35.27932620048523,18.0749454498291,1.9250545501708984,-0.05815696716308594,0.0,3.25,34891.0,0,0,0,0
35.48990488052368,18.422582626342773,1.5774173736572266,-0.07000732421875,0.0,3.25,34891.0,0,0,0,0
35.69943070411682,18.92534637451172,1.0746536254882812,-0.10248184204101562,0.0,3.25,34891.0,0,0,0,0
35.90870666503906,19.53748321533203,0.46251678466796875,-0.059112548828125,0.0,3.25,34891.0,0,0,0,0
36.119304180145264,20.1356201171875,-0.1356201171875,-0.08030509948730469,0.0,3.25,34891.0,0,0,0,0
36.32931327819824,20.590761184692383,-0.5907611846923828,-0.12691497802734375,0.0,3.25,34890.0,0,0,0,0
36.539241790771484,20.973560333251953,-0.9735603332519531,0.3883209228515625,0.0,3.25,34891.0,0,0,0,0
36.74923610687256,21.595172882080078,-1.5951728820800781,-0.08314323425292969,0.0,3.25,34890.0,0,0,0,0
36.95846509933472,22.78268814086914,-2.7826881408691406,-0.7385921478271484,0.0,3.25,34891.0,0,0,0,0
37.169493675231934,22.75583267211914,-2.7558326721191406,-0.1407604217529297,0.0,3.25,34890.0,0,0,0,0
37.37920355796814,23.310253143310547,-3.310253143310547,-0.06741905212402344,0.0,3.25,34891.0,0,0,0,0
37.589189767837524,23.921279907226562,-3.9212799072265625,-0.035732269287109375,0.0,3.25,34891.0,0,0,0,0
37.79962515830994,24.743425369262695,-4.743425369262695,-0.04639434814453125,0.0,3.25,34891.0,0,0,0,0
38.009199380874634,25.664304733276367,-5.664304733276367,-0.17132186889648438,0.0,3.25,34890.0,0,0,0,0
38.21992540359497,26.612289428710938,-6.6122894287109375,-0.16565704345703125,0.0,3.25,34890.0,0,0,0,0
38.42944121360779,27.5159912109375,-7.5159912109375,-0.20155906677246094,0.0,3.25,34890.0,0,0,0,0
38.63858485221863,28.421367645263672,-8.421367645263672,-0.18617630004882812,0.0,3.25,34891.0,0,0,0,0
38.84942388534546,29.627355575561523,-9.627355575561523,-0.5465412139892578,0.0,3.25,34890.0,0,0,0,0
39.059367418289185,31.058931350708008,-11.058931350708008,1.270071029663086,0.0,3.25,34890.0,0,0,0,0
39.26927900314331,31.97366714477539,-11.97366714477539,1.7557945251464844,0.0,3.25,34890.0,0,0,0,0
39.47950291633606,34.576560974121094,-14.576560974121094,-1.1867256164550781,0.0,-0.0,34891.0,0,0,0,0
39.68926525115967,36.891746520996094,-16.891746520996094,-2.4414443969726562,0.0,-0.0,34893.0,0,0,0,0
39.899486780166626,34.775753021240234,-14.775753021240234,-0.033435821533203125,0.0,-0.0,34894.0,0,0,0,0
40.10982346534729,34.83330154418945,-14.833301544189453,0.014430999755859375,0.0,-0.0,34893.0,0,0,0,0
40.31921076774597,34.857364654541016,-14.857364654541016,-0.009632110595703125,0.0,-0.0,34893.0,0,0,0,0
40.52922964096069,34.867000579833984,-14.867000579833984,0.00482177734375,0.0,-0.0,34894.0,0,0,0,0
40.738826274871826,34.871822357177734,-14.871822357177734,0.02414703369140625,0.0,-0.0,34893.0,0,0,0,0
