Time,Angle,Error,Deriv,Sum,Cmd,Headroom,DesiredAng,Kp,Kd,Ki
0.20943045616149902,17.585113525390625,2.414886474609375,-0.0030918121337890625,0.0,-0.0,34893.0,0,0,0,0
0.4193899631500244,17.513187408447266,2.4868125915527344,0.030015945434570312,0.0,-0.0,34895.0,0,0,0,0
0.6292943954467773,17.539520263671875,2.460479736328125,-0.014101028442382812,0.0,-0.0,34893.0,0,0,0,0
0.8398399353027344,17.508913040161133,2.491086959838867,0.013446807861328125,0.0,-0.0,34893.0,0,0,0,0
1.049260139465332,17.574607849121094,2.4253921508789062,-0.00555419921875,0.0,-0.0,34894.0,0,0,0,0
1.2592995166778564,17.570287704467773,2.4297122955322266,-0.0018520355224609375,0.0,-0.0,34894.0,0,0,0,0
1.4694697856903076,17.507080078125,2.492919921875,-0.049835205078125,0.0,-0.0,34894.0,0,0,0,0
1.679121494293213,17.507080078125,2.492919921875,0.11153221130371094,0.0,-0.0,34894.0,0,0,0,0
1.890207052230835,17.567203521728516,2.4327964782714844,-0.008626937866210938,0.0,-0.0,34894.0,0,0,0,0
2.1001923084259033,17.83142852783203,2.1685714721679688,-0.2968177795410156,0.0,-0.0,34894.0,0,0,0,0
2.3092398643493652,17.529706954956055,2.4702930450439453,-0.017129898071289062,0.0,3.5,34894.0,0,0,0,0
2.5193839073181152,17.687442779541016,2.3125572204589844,-0.043270111083984375,0.0,3.5,34890.0,0,0,0,0
2.729949712753296,18.008811950683594,1.9911880493164062,-0.06738471984863281,0.0,3.5,34891.0,0,0,0,0
2.9400837421417236,18.236268997192383,1.7637310028076172,-0.05014991760253906,0.0,3.5,34891.0,0,0,0,0
3.1495871543884277,18.843379974365234,1.1566200256347656,-0.11836051940917969,0.0,3.5,34889.0,0,0,0,0
3.3594517707824707,19.50617218017578,0.49382781982421875,-0.0838775634765625,0.0,3.5,34891.0,0,0,0,0
3.5692453384399414,20.09950065612793,-0.09950065612792969,-0.10628890991210938,0.0,3.5,34890.0,0,0,0,0
3.78039813041687,20.611648559570312,-0.6116485595703125,-0.17504310607910156,0.0,3.5,34890.0,0,0,0,0
3.9899003505706787,21.055898666381836,-1.055898666381836,0.3460121154785156,0.0,3.5,34889.0,0,0,0,0
4.1997270584106445,21.757356643676758,-1.7573566436767578,-0.18163299560546875,0.0,3.5,34891.0,0,0,0,0
4.409987926483154,22.9595890045166,-2.9595890045166016,-0.7166576385498047,0.0,3.5,34891.0,0,0,0,0
4.619364500045776,22.936220169067383,-2.936220169067383,-0.11713027954101562,0.0,3.5,34890.0,0,0,0,0
4.829796314239502,23.620325088500977,-3.6203250885009766,-0.116058349609375,0.0,3.5,34891.0,0,0,0,0
5.04001259803772,24.37447738647461,-4.374477386474609,-0.06235313415527344,0.0,3.5,34890.0,0,0,0,0
5.249827146530151,25.354660034179688,-5.3546600341796875,-0.07567214965820312,0.0,3.5,34891.0,0,0,0,0
5.459335088729858,26.259281158447266,-6.259281158447266,-0.1531219482421875,0.0,3.5,34890.0,0,0,0,0
5.670583724975586,27.351598739624023,-7.351598739624023,-0.14775466918945312,0.0,3.5,34890.0,0,0,0,0
5.880229949951172,28.39008331298828,-8.390083312988281,-0.1983203887939453,0.0,3.5,34891.0,0,0,0,0
6.089342355728149,29.794408798217773,-9.794408798217773,-0.366180419921875,0.0,3.5,34890.0,0,0,0,0
6.299880743026733,31.261978149414062,-11.261978149414062,-0.4021873474121094,0.0,3.5,34890.0,0,0,0,0
6.509671926498413,32.601444244384766,-12.601444244384766,-0.125396728515625,0.0,3.5,34891.0,0,0,0,0
6.719675302505493,33.64250183105469,-13.642501831054688,2.4801254272460938,0.0,-0.0,34890.0,0,0,0,0
6.930052042007446,35.445194244384766,-15.445194244384766,-0.607086181640625,0.0,-0.0,34894.0,0,0,0,0
7.139368772506714,37.19236373901367,-17.192363739013672,-2.4166107177734375,0.0,-0.0,34894.0,0,0,0,0
7.3495261669158936,34.828495025634766,-14.828495025634766,0.024051666259765625,0.0,-0.0,34893.0,0,0,0,0
7.559140205383301,34.84773254394531,-14.847732543945312,-0.00481414794921875,0.0,-0.0,34894.0,0,0,0,0
7.769180059432983,34.867000579833984,-14.867000579833984,-0.024082183837890625,0.0,-0.0,34894.0,0,0,0,0
7.980202913284302,34.867000579833984,-14.867000579833984,0.00965118408203125,0.0,-0.0,34893.0,0,0,0,0
8.18973445892334,34.891136169433594,-14.891136169433594,-0.024135589599609375,0.0,-0.0,34893.0,0,0,0,0
8.39940595626831,34.8621826171875,-14.8621826171875,0.014469146728515625,0.0,-0.0,34894.0,0,0,0,0
8.609436511993408,34.88147735595703,-14.881477355957031,0.0,0.0,-0.0,34892.0,0,0,0,0
8.819659948348999,34.891136169433594,-14.891136169433594,0.00966644287109375,0.0,-0.0,34895.0,0,0,0,0
9.030337810516357,34.88630676269531,-14.886306762695312,-0.1201171875,0.0,-0.0,34894.0,0,0,0,0
9.239065885543823,34.8621826171875,-14.8621826171875,-0.3652801513671875,0.0,-0.0,34894.0,0,0,0,0
9.44924283027649,34.809288024902344,-14.809288024902344,1.1165885925292969,0.0,-0.0,34892.0,0,0,0,0
9.659531116485596,34.9056396484375,-14.9056396484375,2.0951004028320312,0.0,-0.0,34894.0,0,0,0,0
9.869980573654175,36.49834442138672,-16.49834442138672,-1.5878677368164062,0.0,-0.0,34893.0,0,0,0,0
10.079570770263672,37.41079330444336,-17.41079330444336,-2.5148239135742188,0.0,-0.0,34894.0,0,0,0,0
10.289737224578857,35.97343826293945,-15.973438262939453,-1.0871315002441406,0.0,3.5,34893.0,0,0,0,0
10.499517679214478,34.77096939086914,-14.77096939086914,0.038318634033203125,0.0,3.5,34891.0,0,0,0,0
10.709320068359375,33.4791145324707,-13.479114532470703,0.24598312377929688,0.0,3.5,34890.0,0,0,0,0
10.919446229934692,31.88111686706543,-11.88111686706543,0.34461021423339844,0.0,3.5,34890.0,0,0,0,0
11.129230737686157,30.1123104095459,-10.112310409545898,0.41529273986816406,0.0,3.5,34888.0,0,0,0,0
11.339776039123535,28.52640151977539,-8.52640151977539,0.23524093627929688,0.0,3.5,34890.0,0,0,0,0
11.549584150314331,27.26357650756836,-7.263576507568359,0.20042800903320312,0.0,3.5,34889.0,0,0,0,0
11.759445428848267,26.230493545532227,-6.230493545532227,0.08872032165527344,0.0,3.5,34890.0,0,0,0,0
11.969219207763672,25.171268463134766,-5.171268463134766,-0.04161643981933594,0.0,3.5,34890.0,0,0,0,0
12.179445266723633,24.102375030517578,-4.102375030517578,0.6582984924316406,0.0,3.5,34890.0,0,0,0,0
12.389588117599487,23.220012664794922,-3.220012664794922,1.0253677368164062,0.0,3.5,34890.0,0,0,0,0
12.599433660507202,22.923877716064453,-2.923877716064453,-0.1600017547607422,0.0,3.5,34890.0,0,0,0,0
12.81052279472351,22.310832977294922,-2.310832977294922,-0.21906089782714844,0.0,3.5,34890.0,0,0,0,0
13.019976615905762,21.231142044067383,-1.2311420440673828,0.09976005554199219,0.0,3.5,34890.0,0,0,0,0
13.229403257369995,20.79637908935547,-0.7963790893554688,0.07405281066894531,0.0,3.5,34890.0,0,0,0,0
13.43977403640747,20.199064254760742,-0.1990642547607422,0.08395004272460938,0.0,3.5,34889.0,0,0,0,0
13.65008020401001,19.508703231811523,0.49129676818847656,0.1296539306640625,0.0,3.5,34890.0,0,0,0,0
13.859364986419678,18.79486083984375,1.20513916015625,0.10278892517089844,0.0,3.5,34889.0,0,0,0,0
14.069444179534912,18.257692337036133,1.7423076629638672,0.07733154296875,0.0,3.5,34891.0,0,0,0,0
14.280177116394043,17.86895179748535,2.1310482025146484,0.03188514709472656,0.0,-0.0,34889.0,0,0,0,0
14.489582300186157,17.521135330200195,2.4788646697998047,0.17764854431152344,0.0,-0.0,34894.0,0,0,0,0
14.700082063674927,17.366579055786133,2.633420944213867,0.32212257385253906,0.0,-0.0,34894.0,0,0,0,0
14.910379886627197,17.64792251586914,2.3520774841308594,-0.21664047241210938,0.0,-0.0,34894.0,0,0,0,0
15.119971752166748,17.421649932861328,2.578350067138672,-0.0006008148193359375,0.0,-0.0,34893.0,0,0,0,0
15.329776048660278,17.41744041442871,2.582559585571289,0.0024051666259765625,0.0,-0.0,34894.0,0,0,0,0
15.53924560546875,17.414438247680664,2.585561752319336,-0.00060272216796875,0.0,-0.0,34893.0,0,0,0,0
15.750157356262207,17.415037155151367,2.584962844848633,-0.000598907470703125,0.0,-0.0,34894.0,0,0,0,0
15.95991039276123,17.415637969970703,2.584362030029297,-0.0011997222900390625,0.0,-0.0,34892.0,0,0,0,0
16.16971468925476,17.412635803222656,2.5873641967773438,-0.00360107421875,0.0,-0.0,34894.0,0,0,0,0
16.3790864944458,17.413835525512695,2.5861644744873047,-0.022779464721679688,0.0,-0.0,34893.0,0,0,0,0
16.589455366134644,17.413236618041992,2.586763381958008,0.10973548889160156,0.0,-0.0,34893.0,0,0,0,0
16.800270795822144,17.331533432006836,2.668466567993164,0.313262939453125,0.0,-0.0,34894.0,0,0,0,0
17.010387420654297,17.637928009033203,2.362071990966797,-0.22469139099121094,0.0,-0.0,34893.0,0,0,0,0
17.21990394592285,17.534610748291016,2.4653892517089844,-0.12077522277832031,0.0,-0.0,34894.0,0,0,0,0
17.42950987815857,17.411434173583984,2.5885658264160156,0.0018024444580078125,0.0,-0.0,34894.0,0,0,0,0
17.640013694763184,17.40963363647461,2.5903663635253906,0.0011997222900390625,0.0,-0.0,34894.0,0,0,0,0
17.850364923477173,17.404233932495117,2.595766067504883,0.0048007965087890625,0.0,3.5,34893.0,0,0,0,0
18.05944585800171,17.509521484375,2.490478515625,-0.026803970336914062,0.0,3.5,34890.0,0,0,0,0
18.269663333892822,17.807615280151367,2.192384719848633,-0.039691925048828125,0.0,3.5,34892.0,0,0,0,0
18.47929072380066,18.16562843322754,1.834371566772461,-0.07386970520019531,0.0,3.5,34890.0,0,0,0,0
18.69025158882141,18.59494972229004,1.405050277709961,-0.13956260681152344,0.0,3.5,34889.0,0,0,0,0
18.90030598640442,19.27074432373047,0.7292556762695312,0.25487327575683594,0.0,3.5,34891.0,0,0,0,0
19.109668731689453,20.035158157348633,-0.03515815734863281,-0.2168903350830078,0.0,3.5,34891.0,0,0,0,0
19.319381952285767,20.885957717895508,-0.8859577178955078,-0.5600948333740234,0.0,3.5,34891.0,0,0,0,0
19.5297269821167,20.898406982421875,-0.898406982421875,-0.09179115295410156,0.0,3.5,34891.0,0,0,0,0
19.73945951461792,21.44216537475586,-1.4421653747558594,-0.14650344848632812,0.0,3.5,34889.0,0,0,0,0
19.95045828819275,22.06972885131836,-2.0697288513183594,-0.11645317077636719,0.0,3.5,34890.0,0,0,0,0
20.16034770011902,22.730405807495117,-2.730405807495117,-0.11138534545898438,0.0,3.5,34891.0,0,0,0,0
20.369279146194458,23.295860290527344,-3.2958602905273438,-0.04731178283691406,0.0,3.5,34890.0,0,0,0,0
20.57950258255005,24.11512565612793,-4.11512565612793,-0.1595172882080078,0.0,3.5,34890.0,0,0,0,0
20.790421724319458,24.963441848754883,-4.963441848754883,-0.18721389770507812,0.0,3.5,34891.0,0,0,0,0
20.999448537826538,25.870576858520508,-5.870576858520508,-0.2694892883300781,0.0,3.5,34891.0,0,0,0,0
21.21030020713806,26.739683151245117,-6.739683151245117,0.343597412109375,0.0,3.5,34891.0,0,0,0,0
21.41955804824829,27.66891860961914,-7.668918609619141,1.1851825714111328,0.0,3.5,34890.0,0,0,0,0
21.6294424533844,29.603715896606445,-9.603715896606445,-0.6590175628662109,0.0,3.5,34891.0,0,0,0,0
21.839354991912842,31.88111686706543,-11.88111686706543,-1.6845970153808594,0.0,3.5,34891.0,0,0,0,0
22.049669981002808,31.619003295898438,-11.619003295898438,-0.10732078552246094,0.0,3.5,34889.0,0,0,0,0
22.259389638900757,33.301273345947266,-13.301273345947266,-0.31473541259765625,0.0,3.5,34891.0,0,0,0,0
22.469440698623657,34.441001892089844,-14.441001892089844,-0.10638427734375,0.0,-0.0,34891.0,0,0,0,0
22.67992877960205,34.74708938598633,-14.747089385986328,-0.042873382568359375,0.0,-0.0,34894.0,0,0,0,0
22.8895423412323,34.8140869140625,-14.8140869140625,-0.009593963623046875,0.0,-0.0,34895.0,0,0,0,0
23.09935188293457,34.842918395996094,-14.842918395996094,-0.04322052001953125,0.0,-0.0,34894.0,0,0,0,0
23.310200214385986,34.842918395996094,-14.842918395996094,-0.004810333251953125,0.0,-0.0,34894.0,0,0,0,0
23.519205331802368,34.857364654541016,-14.857364654541016,-0.004817962646484375,0.0,-0.0,34894.0,0,0,0,0
23.729880571365356,34.85254669189453,-14.852546691894531,-0.1102294921875,0.0,-0.0,34894.0,0,0,0,0
23.94018816947937,34.842918395996094,-14.842918395996094,-0.3413429260253906,0.0,-0.0,34893.0,0,0,0,0
24.149447679519653,34.809288024902344,-14.809288024902344,0.08184814453125,0.0,-0.0,34893.0,0,0,0,0
24.359315395355225,34.49690246582031,-14.496902465820312,2.6954612731933594,0.0,-0.0,34894.0,0,0,0,0
24.56951403617859,35.91532897949219,-15.915328979492188,-1.0241928100585938,0.0,-0.0,34894.0,0,0,0,0
24.77982997894287,37.33361053466797,-17.33361053466797,-2.442474365234375,0.0,-0.0,34894.0,0,0,0,0
24.989739179611206,34.857364654541016,-14.857364654541016,0.024112701416015625,0.0,-0.0,34893.0,0,0,0,0
25.199275255203247,34.876651763916016,-14.876651763916016,0.0,0.0,-0.0,34894.0,0,0,0,0
25.410261631011963,34.8621826171875,-14.8621826171875,0.033786773681640625,0.0,-0.0,34894.0,0,0,0,0
25.619455575942993,34.88147735595703,-14.881477355957031,0.014492034912109375,0.0,-0.0,34892.0,0,0,0,0
25.829448223114014,34.88630676269531,-14.886306762695312,-0.014484405517578125,0.0,-0.0,34894.0,0,0,0,0
26.039870023727417,34.842918395996094,-14.842918395996094,0.0482177734375,0.0,3.5,34893.0,0,0,0,0
26.250089645385742,33.69459533691406,-13.694595336914062,0.10931396484375,0.0,3.5,34890.0,0,0,0,0
26.459432125091553,32.237152099609375,-12.237152099609375,0.4672584533691406,0.0,3.5,34889.0,0,0,0,0
26.669365167617798,30.527603149414062,-10.527603149414062,0.19933700561523438,0.0,3.5,34889.0,0,0,0,0
26.879457235336304,28.688846588134766,-8.688846588134766,-0.0294952392578125,0.0,3.5,34891.0,0,0,0,0
27.089261770248413,27.447526931762695,-7.447526931762695,1.139801025390625,0.0,3.5,34890.0,0,0,0,0
27.299651622772217,26.42981719970703,-6.429817199707031,0.1674785614013672,0.0,3.5,34891.0,0,0,0,0
27.50967001914978,26.128448486328125,-6.128448486328125,-0.6711978912353516,0.0,3.5,34891.0,0,0,0,0
27.720154523849487,24.5476131439209,-4.547613143920898,-0.09534835815429688,0.0,3.5,34889.0,0,0,0,0
27.929598569869995,23.542760848999023,-3.5427608489990234,0.12417030334472656,0.0,3.5,34889.0,0,0,0,0
28.13933777809143,22.84210205078125,-2.84210205078125,0.12988662719726562,0.0,3.5,34889.0,0,0,0,0
28.349576950073242,22.10158920288086,-2.1015892028808594,0.1413421630859375,0.0,3.5,34890.0,0,0,0,0
28.55909538269043,21.334213256835938,-1.3342132568359375,0.12479400634765625,0.0,3.5,34890.0,0,0,0,0
28.76980233192444,20.872499465942383,-0.8724994659423828,0.09791374206542969,0.0,3.5,34890.0,0,0,0,0
28.98027753829956,20.28586196899414,-0.2858619689941406,0.10526657104492188,0.0,3.5,34890.0,0,0,0,0
29.188727617263794,19.628028869628906,0.37197113037109375,0.08832550048828125,0.0,3.5,34890.0,0,0,0,0
29.399200201034546,18.8961124420166,1.1038875579833984,0.05240631103515625,0.0,3.5,34889.0,0,0,0,0
29.60948634147644,18.35116958618164,1.6488304138183594,0.12355232238769531,0.0,3.5,34889.0,0,0,0,0
29.81889510154724,18.192279815673828,1.8077201843261719,-0.18346786499023438,0.0,3.5,34890.0,0,0,0,0
30.030001401901245,17.68618392944336,2.3138160705566406,-0.08124351501464844,0.0,-0.0,34891.0,0,0,0,0
30.23995018005371,17.45845603942871,2.541543960571289,0.0054492950439453125,0.0,-0.0,34894.0,0,0,0,0
30.449451208114624,17.42887306213379,2.571126937866211,0.004215240478515625,0.0,-0.0,34893.0,0,0,0,0
30.659485340118408,17.418643951416016,2.5813560485839844,0.001201629638671875,0.0,-0.0,34894.0,0,0,0,0
30.870265245437622,17.416240692138672,2.583759307861328,0.0011997222900390625,0.0,-0.0,34893.0,0,0,0,0
31.0794415473938,17.415037155151367,2.584962844848633,0.0036067962646484375,0.0,-0.0,34893.0,0,0,0,0
31.290261030197144,17.416839599609375,2.583160400390625,-0.01979827880859375,0.0,-0.0,34892.0,0,0,0,0
31.49906039237976,17.409034729003906,2.5909652709960938,-0.09287834167480469,0.0,-0.0,34894.0,0,0,0,0
31.70923089981079,17.37790870666504,2.622091293334961,0.27126502990722656,0.0,-0.0,34893.0,0,0,0,0
31.920034408569336,17.414438247680664,2.585561752319336,0.0,0.0,-0.0,34894.0,0,0,0,0
32.12984108924866,17.584495544433594,2.4155044555664062,-0.17306137084960938,0.0,-0.0,34894.0,0,0,0,0
32.33990955352783,17.41203498840332,2.5879650115966797,0.0006008148193359375,0.0,-0.0,34893.0,0,0,0,0
32.54988765716553,17.41083335876465,2.5891666412353516,0.0006008148193359375,0.0,-0.0,34894.0,0,0,0,0
32.76029062271118,17.412635803222656,2.5873641967773438,0.0018024444580078125,0.0,-0.0,34893.0,0,0,0,0
32.97019839286804,17.41203498840332,2.5879650115966797,0.001800537109375,0.0,-0.0,34892.0,0,0,0,0
33.180373430252075,17.413835525512695,2.5861644744873047,-0.0011997222900390625,0.0,-0.0,34894.0,0,0,0,0
33.38945698738098,17.41083335876465,2.5891666412353516,0.0018024444580078125,0.0,-0.0,34893.0,0,0,0,0
33.59918737411499,17.453615188598633,2.546384811401367,-0.11141204833984375,0.0,3.5,34892.0,0,0,0,0
33.80976748466492,17.6679630279541,2.3320369720458984,0.234832763671875,0.0,3.5,34890.0,0,0,0,0
34.019492864608765,18.035444259643555,1.9645557403564453,0.08737945556640625,0.0,3.5,34890.0,0,0,0,0
34.2295777797699,18.35187339782715,1.6481266021728516,-0.07615470886230469,0.0,3.5,34890.0,0,0,0,0
34.43905186653137,18.971776962280273,1.0282230377197266,-0.12382888793945312,0.0,3.5,34891.0,0,0,0,0
34.650256395339966,19.620290756225586,0.37970924377441406,-0.1368732452392578,0.0,3.5,34890.0,0,0,0,0
34.86015439033508,20.183147430419922,-0.18314743041992188,-0.07625389099121094,0.0,3.5,34891.0,0,0,0,0
35.069907903671265,20.65160369873047,-0.6516036987304688,-0.027994155883789062,0.0,3.5,34891.0,0,0,0,0
35.27951121330261,21.158580780029297,-1.1585807800292969,-0.08567237854003906,0.0,3.5,34891.0,0,0,0,0
35.48925566673279,21.846942901611328,-1.8469429016113281,-0.09427070617675781,0.0,3.5,34891.0,0,0,0,0
35.699448585510254,22.43438720703125,-2.43438720703125,-0.07666587829589844,0.0,3.5,34891.0,0,0,0,0
35.909385204315186,22.970609664916992,-2.970609664916992,-0.19733428955078125,0.0,3.5,34889.0,0,0,0,0
36.12003254890442,23.69866180419922,-3.6986618041992188,0.437225341796875,0.0,3.5,34891.0,0,0,0,0
36.3294460773468,24.325212478637695,-4.325212478637695,0.77740478515625,0.0,3.5,34891.0,0,0,0,0
36.538846015930176,25.440380096435547,-5.440380096435547,-0.1097869873046875,0.0,3.5,34891.0,0,0,0,0
36.74946999549866,26.844688415527344,-6.844688415527344,-0.6428890228271484,0.0,3.5,34891.0,0,0,0,0
36.959574699401855,27.45223045349121,-7.452230453491211,-0.11458969116210938,0.0,3.5,34891.0,0,0,0,0
37.16957759857178,28.513208389282227,-8.513208389282227,-0.26264190673828125,0.0,3.5,34890.0,0,0,0,0
37.37944984436035,29.930723190307617,-9.930723190307617,-0.19330787658691406,0.0,3.5,34891.0,0,0,0,0
37.58944082260132,31.324716567993164,-11.324716567993164,-0.17679595947265625,0.0,3.5,34891.0,0,0,0,0
37.80017948150635,32.75625228881836,-12.75625228881836,-0.20984649658203125,0.0,3.5,34890.0,0,0,0,0
38.009676694869995,34.12477111816406,-14.124771118164062,-0.16156768798828125,0.0,-0.0,34890.0,0,0,0,0
38.219491720199585,34.652042388916016,-14.652042388916016,-0.0566558837890625,0.0,-0.0,34893.0,0,0,0,0
38.42998743057251,34.79969787597656,-14.799697875976562,-0.1002349853515625,0.0,-0.0,34894.0,0,0,0,0
38.64005184173584,34.8140869140625,-14.8140869140625,-0.2984886169433594,0.0,-0.0,34894.0,0,0,0,0
38.85009169578552,34.83810806274414,-14.83810806274414,0.038543701171875,0.0,-0.0,34894.0,0,0,0,0
39.05949687957764,34.5015754699707,-14.501575469970703,2.974903106689453,0.0,-0.0,34894.0,0,0,0,0
39.26905012130737,35.56227111816406,-15.562271118164062,-0.3577423095703125,0.0,-0.0,34894.0,0,0,0,0
39.47937297821045,37.30405044555664,-17.30405044555664,-2.4322280883789062,0.0,-0.0,34894.0,0,0,0,0
39.68898010253906,34.88147735595703,-14.881477355957031,-0.009654998779296875,0.0,-0.0,34892.0,0,0,0,0
39.899492025375366,34.88147735595703,-14.881477355957031,-0.004825592041015625,0.0,-0.0,34895.0,0,0,0,0
40.10868859291077,34.871822357177734,-14.871822357177734,-0.01445770263671875,0.0,-0.0,34894.0,0,0,0,0
40.32022476196289,34.857364654541016,-14.857364654541016,0.038604736328125,0.0,-0.0,34893.0,0,0,0,0
40.529842376708984,34.89596939086914,-14.89596939086914,-0.019317626953125,0.0,-0.0,34894.0,0,0,0,0
40.73936080932617,34.91047668457031,-14.910476684570312,-0.009674072265625,0.0,-0.0,34894.0,0,0,0,0
40.95005440711975,34.88630676269531,-14.886306762695312,-0.014484405517578125,0.0,-0.0,34894.0,0,0,0,0
41.15860915184021,34.88630676269531,-14.886306762695312,0.00482940673828125,0.0,-0.0,34894.0,0,0,0,0
41.37111568450928,34.90080261230469,-14.900802612304688,-0.101104736328125,0.0,-0.0,34894.0,0,0,0,0
41.57915186882019,34.828495025634766,-14.828495025634766,-0.298858642578125,0.0,3.5,34894.0,0,0,0,0
